Time,ECG_Signal,Frequency
0,0,1
0.001001001,0.004717124,1.000031447
0.002002002,0.009434161,1.000062895
0.003003003,0.014150924,6
0.004004004,0.018867225,1.000125789
0.005005005,0.023582879,1.000157237
0.006006006,0.028297698,1.000188684
0.007007007,0.033011497,1.000220132
0.008008008,0.037724088,1.000251579
0.009009009,0.042435286,1.000283026
0.01001001,0.047144902,1.000314474
0.011011011,0.051852752,1.000345921
0.012012012,0.056558649,1.000377368
0.013013013,0.061262405,1.000408816
0.014014014,0.065963835,1.000440263
0.015015015,0.070662753,1.000471711
0.016016016,0.075358973,1.000503158
0.017017017,0.080052308,1.000534605
0.018018018,0.084742572,1.000566053
0.019019019,0.089429579,1.0005975
0.02002002,0.094113145,1.000628947
0.021021021,0.098793083,1.000660395
0.022022022,0.103469207,1.000691842
0.023023023,0.108141332,1.000723289
0.024024024,0.112809274,1.000754737
0.025025025,0.117472846,1.000786184
0.026026026,0.122131864,1.000817631
0.027027027,0.126786143,1.000849079
0.028028028,0.131435499,1.000880526
0.029029029,0.136079746,1.000911973
0.03003003,0.140718702,1.000943421
0.031031031,0.145352181,1.000974868
0.032032032,0.149979999,1.001006315
0.033033033,0.154601974,1.001037763
0.034034034,0.159217922,1.00106921
0.035035035,0.163827659,1.001100657
0.036036036,0.168431002,1.001132104
0.037037037,0.173027769,1.001163552
0.038038038,0.177617777,1.001194999
0.039039039,0.182200844,1.001226446
0.04004004,0.186776787,1.001257894
0.041041041,0.191345426,1.001289341
0.042042042,0.195906577,1.001320788
0.043043043,0.200460062,1.001352235
0.044044044,0.205005697,1.001383683
0.045045045,0.209543303,1.00141513
0.046046046,0.214072699,1.001446577
0.047047047,0.218593706,1.001478024
0.048048048,0.223106143,1.001509472
0.049049049,0.227609831,1.001540919
0.05005005,0.232104591,1.001572366
0.051051051,0.236590245,1.001603813
0.052052052,0.241066613,1.001635261
0.053053053,0.245533518,1.001666708
0.054054054,0.249990783,1.001698155
0.055055055,0.254438229,1.001729602
0.056056056,0.25887568,1.001761049
0.057057057,0.263302959,1.001792496
0.058058058,0.26771989,1.001823944
0.059059059,0.272126298,1.001855391
0.06006006,0.276522006,1.001886838
0.061061061,0.28090684,1.001918285
0.062062062,0.285280625,1.001949732
0.063063063,0.289643188,1.001981179
0.064064064,0.293994354,1.002012626
0.065065065,0.298333949,1.002044074
0.066066066,0.302661802,1.002075521
0.067067067,0.30697774,1.002106968
0.068068068,0.31128159,1.002138415
0.069069069,0.315573182,1.002169862
0.07007007,0.319852343,1.002201309
0.071071071,0.324118905,1.002232756
0.072072072,0.328372696,1.002264203
0.073073073,0.332613546,1.00229565
0.074074074,0.336841288,1.002327097
0.075075075,0.341055752,1.002358544
0.076076076,0.345256771,1.002389991
0.077077077,0.349444175,1.002421438
0.078078078,0.3536178,1.002452885
0.079079079,0.357777477,1.002484332
0.08008008,0.361923042,1.002515779
0.081081081,0.366054328,1.002547226
0.082082082,0.370171171,1.002578673
0.083083083,0.374273406,1.00261012
0.084084084,0.37836087,1.002641567
0.085085085,0.3824334,1.002673014
0.086086086,0.386490832,1.002704461
0.087087087,0.390533005,1.002735908
0.088088088,0.394559757,1.002767355
0.089089089,0.398570928,1.002798802
0.09009009,0.402566357,1.002830249
0.091091091,0.406545884,1.002861695
0.092092092,0.410509351,1.002893142
0.093093093,0.414456599,1.002924589
0.094094094,0.418387471,1.002956036
0.095095095,0.422301809,1.002987483
0.096096096,0.426199456,1.00301893
0.097097097,0.430080257,1.003050376
0.098098098,0.433944057,1.003081823
0.099099099,0.4377907,1.00311327
0.1001001,0.441620034,1.003144717
0.101101101,0.445431905,1.003176163
0.102102102,0.44922616,1.00320761
0.103103103,0.453002647,1.003239057
0.104104104,0.456761216,1.003270504
0.105105105,0.460501716,1.00330195
0.106106106,0.464223997,1.003333397
0.107107107,0.46792791,1.003364844
0.108108108,0.471613307,1.00339629
0.109109109,0.47528004,1.003427737
0.11011011,0.478927962,1.003459184
0.111111111,0.482556927,1.00349063
0.112112112,0.486166789,1.003522077
0.113113113,0.489757405,1.003553523
0.114114114,0.49332863,1.00358497
0.115115115,0.49688032,1.003616416
0.116116116,0.500412333,1.003647863
0.117117117,0.503924529,1.00367931
0.118118118,0.507416765,1.003710756
0.119119119,0.510888902,1.003742203
0.12012012,0.514340801,1.003773649
0.121121121,0.517772322,1.003805096
0.122122122,0.521183329,1.003836542
0.123123123,0.524573683,1.003867988
0.124124124,0.52794325,1.003899435
0.125125125,0.531291894,1.003930881
0.126126126,0.53461948,1.003962328
0.127127127,0.537925875,1.003993774
0.128128128,0.541210945,1.00402522
0.129129129,0.54447456,1.004056667
0.13013013,0.547716587,1.004088113
0.131131131,0.550936896,1.004119559
0.132132132,0.554135359,1.004151006
0.133133133,0.557311845,1.004182452
0.134134134,0.560466228,1.004213898
0.135135135,0.563598381,1.004245344
0.136136136,0.566708177,1.004276791
0.137137137,0.569795492,1.004308237
0.138138138,0.572860201,1.004339683
0.139139139,0.575902181,1.004371129
0.14014014,0.578921309,1.004402575
0.141141141,0.581917464,1.004434022
0.142142142,0.584890525,1.004465468
0.143143143,0.587840372,1.004496914
0.144144144,0.590766886,1.00452836
0.145145145,0.593669951,1.004559806
0.146146146,0.596549447,1.004591252
0.147147147,0.59940526,1.004622698
0.148148148,0.602237274,1.004654144
0.149149149,0.605045375,1.00468559
0.15015015,0.60782945,1.004717036
0.151151151,0.610589386,1.004748482
0.152152152,0.613325072,1.004779928
0.153153153,0.616036398,1.004811374
0.154154154,0.618723253,1.00484282
0.155155155,0.62138553,1.004874266
0.156156156,0.624023121,1.004905712
0.157157157,0.626635919,1.004937157
0.158158158,0.629223818,1.004968603
0.159159159,0.631786715,1.005000049
0.16016016,0.634324505,1.005031495
0.161161161,0.636837086,1.005062941
0.162162162,0.639324356,1.005094386
0.163163163,0.641786214,1.005125832
0.164164164,0.644222561,1.005157278
0.165165165,0.646633298,1.005188724
0.166166166,0.649018327,1.005220169
0.167167167,0.651377553,1.005251615
0.168168168,0.653710878,1.005283061
0.169169169,0.656018209,1.005314506
0.17017017,0.658299452,1.005345952
0.171171171,0.660554515,1.005377397
0.172172172,0.662783305,1.005408843
0.173173173,0.664985733,1.005440288
0.174174174,0.667161709,1.005471734
0.175175175,0.669311145,1.005503179
0.176176176,0.671433953,1.005534625
0.177177177,0.673530047,1.00556607
0.178178178,0.675599342,1.005597516
0.179179179,0.677641754,1.005628961
0.18018018,0.679657199,1.005660406
0.181181181,0.681645595,1.005691852
0.182182182,0.683606863,1.005723297
0.183183183,0.685540921,1.005754742
0.184184184,0.68744769,1.005786188
0.185185185,0.689327094,1.005817633
0.186186186,0.691179055,1.005849078
0.187187187,0.693003498,1.005880523
0.188188188,0.694800349,1.005911969
0.189189189,0.696569533,1.005943414
0.19019019,0.69831098,1.005974859
0.191191191,0.700024616,1.006006304
0.192192192,0.701710373,1.006037749
0.193193193,0.703368182,1.006069194
0.194194194,0.704997974,1.006100639
0.195195195,0.706599683,1.006132084
0.196196196,0.708173243,1.006163529
0.197197197,0.70971859,1.006194974
0.198198198,0.711235659,1.006226419
0.199199199,0.71272439,1.006257864
0.2002002,0.71418472,1.006289309
0.201201201,0.71561659,1.006320754
0.202202202,0.717019941,1.006352199
0.203203203,0.718394714,1.006383643
0.204204204,0.719740854,1.006415088
0.205205205,0.721058305,1.006446533
0.206206206,0.722347012,1.006477978
0.207207207,0.723606922,1.006509423
0.208208208,0.724837983,1.006540867
0.209209209,0.726040144,1.006572312
0.21021021,0.727213356,1.006603757
0.211211211,0.728357569,1.006635201
0.212212212,0.729472736,1.006666646
0.213213213,0.730558812,1.00669809
0.214214214,0.731615749,1.006729535
0.215215215,0.732643506,1.006760979
0.216216216,0.733642038,1.006792424
0.217217217,0.734611304,1.006823868
0.218218218,0.735551264,1.006855313
0.219219219,0.736461878,1.006886757
0.22022022,0.737343108,1.006918201
0.221221221,0.738194917,1.006949646
0.222222222,0.739017268,1.00698109
0.223223223,0.739810128,1.007012534
0.224224224,0.740573463,1.007043979
0.225225225,0.741307241,1.007075423
0.226226226,0.742011429,1.007106867
0.227227227,0.742685999,1.007138311
0.228228228,0.743330922,1.007169756
0.229229229,0.74394617,1.0072012
0.23023023,0.744531716,1.007232644
0.231231231,0.745087535,1.007264088
0.232232232,0.745613603,1.007295532
0.233233233,0.746109898,1.007326976
0.234234234,0.746576397,1.00735842
0.235235235,0.74701308,1.007389864
0.236236236,0.747419928,1.007421308
0.237237237,0.747796922,1.007452752
0.238238238,0.748144046,1.007484195
0.239239239,0.748461285,1.007515639
0.24024024,0.748748622,1.007547083
0.241241241,0.749006045,1.007578527
0.242242242,0.749233543,1.007609971
0.243243243,0.749431103,1.007641414
0.244244244,0.749598716,1.007672858
0.245245245,0.749736374,1.007704302
0.246246246,0.749844069,1.007735745
0.247247247,0.749921795,1.007767189
0.248248248,0.749969547,1.007798632
0.249249249,0.749987321,1.007830076
0.25025025,0.749975114,1.00786152
0.251251251,0.749932926,1.007892963
0.252252252,0.749860756,1.007924406
0.253253253,0.749758605,1.00795585
0.254254254,0.749626475,1.007987293
0.255255255,0.74946437,1.008018737
0.256256256,0.749272294,1.00805018
0.257257257,0.749050253,1.008081623
0.258258258,0.748798254,1.008113066
0.259259259,0.748516305,1.00814451
0.26026026,0.748204416,1.008175953
0.261261261,0.747862597,1.008207396
0.262262262,0.74749086,1.008238839
0.263263263,0.747089219,1.008270282
0.264264264,0.746657686,1.008301725
0.265265265,0.746196279,1.008333168
0.266266266,0.745705012,1.008364611
0.267267267,0.745183905,1.008396054
0.268268268,0.744632975,1.008427497
0.269269269,0.744052244,1.00845894
0.27027027,0.743441732,1.008490383
0.271271271,0.742801463,1.008521826
0.272272272,0.742131459,1.008553268
0.273273273,0.741431746,1.008584711
0.274274274,0.74070235,1.008616154
0.275275275,0.739943299,1.008647597
0.276276276,0.739154621,1.008679039
0.277277277,0.738336345,1.008710482
0.278278278,0.737488502,1.008741925
0.279279279,0.736611125,1.008773367
0.28028028,0.735704247,1.00880481
0.281281281,0.734767903,1.008836252
0.282282282,0.733802127,1.008867694
0.283283283,0.732806957,1.008899137
0.284284284,0.731782432,1.008930579
0.285285285,0.730728589,1.008962022
0.286286286,0.729645469,1.008993464
0.287287287,0.728533115,1.009024906
0.288288288,0.727391568,1.009056348
0.289289289,0.726220873,1.009087791
0.29029029,0.725021074,1.009119233
0.291291291,0.723792219,1.009150675
0.292292292,0.722534353,1.009182117
0.293293293,0.721247527,1.009213559
0.294294294,0.719931789,1.009245001
0.295295295,0.718587191,1.009276443
0.296296296,0.717213784,1.009307885
0.297297297,0.715811622,1.009339327
0.298298298,0.714380759,1.009370769
0.299299299,0.712921251,1.009402211
0.3003003,0.711433155,1.009433652
0.301301301,0.709916528,1.009465094
0.302302302,0.708371429,1.009496536
0.303303303,0.706797919,1.009527978
0.304304304,0.705196058,1.009559419
0.305305305,0.70356591,1.009590861
0.306306306,0.701907537,1.009622302
0.307307307,0.700221005,1.009653744
0.308308308,0.698506379,1.009685185
0.309309309,0.696763727,1.009716627
0.31031031,0.694993116,1.009748068
0.311311311,0.693194616,1.00977951
0.312312312,0.691368296,1.009810951
0.313313313,0.68951423,1.009842392
0.314314314,0.687632488,1.009873834
0.315315315,0.685723145,1.009905275
0.316316316,0.683786276,1.009936716
0.317317317,0.681821957,1.009968157
0.318318318,0.679830265,1.009999598
0.319319319,0.677811277,1.010031039
0.32032032,0.675765074,1.01006248
0.321321321,0.673691735,1.010093921
0.322322322,0.671591342,1.010125362
0.323323323,0.669463978,1.010156803
0.324324324,0.667309726,1.010188244
0.325325325,0.665128671,1.010219685
0.326326326,0.662920899,1.010251126
0.327327327,0.660686497,1.010282566
0.328328328,0.658425553,1.010314007
0.329329329,0.656138155,1.010345448
0.33033033,0.653824395,1.010376888
0.331331331,0.651484363,1.010408329
0.332332332,0.649118151,1.010439769
0.333333333,0.646725853,1.01047121
0.334334334,0.644307563,1.01050265
0.335335335,0.641863376,1.010534091
0.336336336,0.63939339,1.010565531
0.337337337,0.636897702,1.010596972
0.338338338,0.634376409,1.010628412
0.339339339,0.631829613,1.010659852
0.34034034,0.629257413,1.010691292
0.341341341,0.626659911,1.010722732
0.342342342,0.62403721,1.010754173
0.343343343,0.621389413,1.010785613
0.344344344,0.618716626,1.010817053
0.345345345,0.616018954,1.010848493
0.346346346,0.613296504,1.010879933
0.347347347,0.610549384,1.010911373
0.348348348,0.607777702,1.010942812
0.349349349,0.604981569,1.010974252
0.35035035,0.602161094,1.011005692
0.351351351,0.59931639,1.011037132
0.352352352,0.59644757,1.011068571
0.353353353,0.593554747,1.011100011
0.354354354,0.590638037,1.011131451
0.355355355,0.587697553,1.01116289
0.356356356,0.584733415,1.01119433
0.357357357,0.581745738,1.011225769
0.358358358,0.578734641,1.011257209
0.359359359,0.575700245,1.011288648
0.36036036,0.572642669,1.011320087
0.361361361,0.569562035,1.011351527
0.362362362,0.566458466,1.011382966
0.363363363,0.563332084,1.011414405
0.364364364,0.560183014,1.011445844
0.365365365,0.557011381,1.011477283
0.366366366,0.553817311,1.011508722
0.367367367,0.550600931,1.011540161
0.368368368,0.547362368,1.0115716
0.369369369,0.544101753,1.011603039
0.37037037,0.540819214,1.011634478
0.371371371,0.537514882,1.011665917
0.372372372,0.534188888,1.011697356
0.373373373,0.530841366,1.011728795
0.374374374,0.527472447,1.011760233
0.375375375,0.524082267,1.011791672
0.376376376,0.52067096,1.011823111
0.377377377,0.517238662,1.011854549
0.378378378,0.51378551,1.011885988
0.379379379,0.510311642,1.011917426
0.38038038,0.506817195,1.011948864
0.381381381,0.503302309,1.011980303
0.382382382,0.499767125,1.012011741
0.383383383,0.496211783,1.012043179
0.384384384,0.492636424,1.012074618
0.385385385,0.489041192,1.012106056
0.386386386,0.48542623,1.012137494
0.387387387,0.481791682,1.012168932
0.388388388,0.478137693,1.01220037
0.389389389,0.474464409,1.012231808
0.39039039,0.470771976,1.012263246
0.391391391,0.467060542,1.012294684
0.392392392,0.463330255,1.012326122
0.393393393,0.459581264,1.01235756
0.394394394,0.455813719,1.012388997
0.395395395,0.45202777,1.012420435
0.396396396,0.448223568,1.012451873
0.397397397,0.444401265,1.01248331
0.398398398,0.440561015,1.012514748
0.399399399,0.43670297,1.012546185
0.4004004,0.432827284,1.012577623
0.401401401,0.428934114,1.01260906
0.402402402,0.425023613,1.012640497
0.403403403,0.421095939,1.012671935
0.404404404,0.417151249,1.012703372
0.405405405,0.4131897,1.012734809
0.406406406,0.409211451,1.012766246
0.407407407,0.405216661,1.012797683
0.408408408,0.40120549,1.01282912
0.409409409,0.397178098,1.012860557
0.41041041,0.393134647,1.012891994
0.411411411,0.389075299,1.012923431
0.412412412,0.385000215,1.012954868
0.413413413,0.380909559,1.012986305
0.414414414,0.376803495,1.013017742
0.415415415,0.372682187,1.013049178
0.416416416,0.368545801,1.013080615
0.417417417,0.364394502,1.013112052
0.418418418,0.360228456,1.013143488
0.419419419,0.35604783,1.013174925
0.42042042,0.351852792,1.013206361
0.421421421,0.34764351,1.013237797
0.422422422,0.343420153,1.013269234
0.423423423,0.339182889,1.01330067
0.424424424,0.33493189,1.013332106
0.425425425,0.330667325,1.013363542
0.426426426,0.326389365,1.013394979
0.427427427,0.322098182,1.013426415
0.428428428,0.317793947,1.013457851
0.429429429,0.313476835,1.013489287
0.43043043,0.309147017,1.013520722
0.431431431,0.304804668,1.013552158
0.432432432,0.300449962,1.013583594
0.433433433,0.296083074,1.01361503
0.434434434,0.291704179,1.013646465
0.435435435,0.287313452,1.013677901
0.436436436,0.28291107,1.013709337
0.437437437,0.27849721,1.013740772
0.438438438,0.274072049,1.013772208
0.439439439,0.269635765,1.013803643
0.44044044,0.265188537,1.013835078
0.441441441,0.260730541,1.013866514
0.442442442,0.256261959,1.013897949
0.443443443,0.251782968,1.013929384
0.444444444,0.247293751,1.013960819
0.445445445,0.242794485,1.013992254
0.446446446,0.238285354,1.014023689
0.447447447,0.233766537,1.014055124
0.448448448,0.229238217,1.014086559
0.449449449,0.224700576,1.014117994
0.45045045,0.220153796,1.014149429
0.451451451,0.21559806,1.014180864
0.452452452,0.211033551,1.014212298
0.453453453,0.206460453,1.014243733
0.454454454,0.20187895,1.014275168
0.455455455,0.197289226,1.014306602
0.456456456,0.192691466,1.014338037
0.457457457,0.188085855,1.014369471
0.458458458,0.183472578,1.014400905
0.459459459,0.178851821,1.01443234
0.46046046,0.17422377,1.014463774
0.461461461,0.169588612,1.014495208
0.462462462,0.164946533,1.014526642
0.463463463,0.16029772,1.014558076
0.464464464,0.15564236,1.01458951
0.465465465,0.150980641,1.014620944
0.466466466,0.146312751,1.014652378
0.467467467,0.141638877,1.014683812
0.468468468,0.136959208,1.014715246
0.469469469,0.132273933,1.01474668
0.47047047,0.12758324,1.014778113
0.471471471,0.122887318,1.014809547
0.472472472,0.118186358,1.01484098
0.473473473,0.113480548,1.014872414
0.474474474,0.108770077,1.014903847
0.475475475,0.104055137,1.014935281
0.476476476,0.099335917,1.014966714
0.477477477,0.094612607,1.014998147
0.478478478,0.089885399,1.01502958
0.479479479,0.085154482,1.015061014
0.48048048,0.080420047,1.015092447
0.481481481,0.075682287,1.01512388
0.482482482,0.070941391,1.015155313
0.483483483,0.066197551,1.015186746
0.484484484,0.061450959,1.015218178
0.485485485,0.056701806,1.015249611
0.486486486,0.051950284,1.015281044
0.487487487,0.047196585,1.015312477
0.488488488,0.042440901,1.015343909
0.489489489,0.037683423,1.015375342
0.49049049,0.032924345,1.015406774
0.491491491,0.028163857,1.015438207
0.492492492,0.023402154,1.015469639
0.493493493,0.018639426,1.015501071
0.494494494,0.013875866,1.015532503
0.495495495,0.009111668,1.015563936
0.496496496,0.004347023,1.015595368
0.497497497,-0.000417877,1.0156268
0.498498498,-0.005182837,1.015658232
0.499499499,-0.009947667,1.015689664
0.500500501,-0.014712172,1.015721095
0.501501502,-0.019476161,1.015752527
0.502502503,-0.024239441,1.015783959
0.503503504,-0.02900182,1.015815391
0.504504505,-0.033763103,1.015846822
0.505505506,-0.0385231,1.015878254
0.506506507,-0.043281617,1.015909685
0.507507508,-0.048038462,1.015941117
0.508508509,-0.052793442,1.015972548
0.50950951,-0.057546365,1.016003979
0.510510511,-0.062297039,1.016035411
0.511511512,-0.067045271,1.016066842
0.512512513,-0.071790869,1.016098273
0.513513514,-0.076533641,1.016129704
0.514514515,-0.081273395,1.016161135
0.515515516,-0.086009939,1.016192566
0.516516517,-0.090743081,1.016223997
0.517517518,-0.09547263,1.016255427
0.518518519,-0.100198393,1.016286858
0.51951952,-0.10492018,1.016318289
0.520520521,-0.109637799,1.016349719
0.521521522,-0.114351058,1.01638115
0.522522523,-0.119059768,1.01641258
0.523523524,-0.123763737,1.016444011
0.524524525,-0.128462774,1.016475441
0.525525526,-0.13315669,1.016506871
0.526526527,-0.137845293,1.016538302
0.527527528,-0.142528393,1.016569732
0.528528529,-0.147205801,1.016601162
0.52952953,-0.151877328,1.016632592
0.530530531,-0.156542782,1.016664022
0.531531532,-0.161201976,1.016695452
0.532532533,-0.165854721,1.016726881
0.533533534,-0.170500827,1.016758311
0.534534535,-0.175140105,1.016789741
0.535535536,-0.179772369,1.01682117
0.536536537,-0.184397429,1.0168526
0.537537538,-0.189015099,1.016884029
0.538538539,-0.19362519,1.016915459
0.53953954,-0.198227515,1.016946888
0.540540541,-0.202821888,1.016978317
0.541541542,-0.207408122,1.017009747
0.542542543,-0.211986031,1.017041176
0.543543544,-0.216555428,1.017072605
0.544544545,-0.221116129,1.017104034
0.545545546,-0.225667948,1.017135463
0.546546547,-0.2302107,1.017166892
0.547547548,-0.234744201,1.01719832
0.548548549,-0.239268265,1.017229749
0.54954955,-0.24378271,1.017261178
0.550550551,-0.248287352,1.017292606
0.551551552,-0.252782008,1.017324035
0.552552553,-0.257266495,1.017355463
0.553553554,-0.261740631,1.017386892
0.554554555,-0.266204234,1.01741832
0.555555556,-0.270657122,1.017449748
0.556556557,-0.275099114,1.017481177
0.557557558,-0.27953003,1.017512605
0.558558559,-0.283949689,1.017544033
0.55955956,-0.288357911,1.017575461
0.560560561,-0.292754518,1.017606889
0.561561562,-0.29713933,1.017638316
0.562562563,-0.301512168,1.017669744
0.563563564,-0.305872856,1.017701172
0.564564565,-0.310221214,1.017732599
0.565565566,-0.314557067,1.017764027
0.566566567,-0.318880238,1.017795455
0.567567568,-0.32319055,1.017826882
0.568568569,-0.327487829,1.017858309
0.56956957,-0.331771899,1.017889737
0.570570571,-0.336042585,1.017921164
0.571571572,-0.340299714,1.017952591
0.572572573,-0.344543112,1.017984018
0.573573574,-0.348772606,1.018015445
0.574574575,-0.352988024,1.018046872
0.575575576,-0.357189195,1.018078299
0.576576577,-0.361375946,1.018109725
0.577577578,-0.365548107,1.018141152
0.578578579,-0.369705509,1.018172579
0.57957958,-0.37384798,1.018204005
0.580580581,-0.377975354,1.018235432
0.581581582,-0.382087461,1.018266858
0.582582583,-0.386184133,1.018298285
0.583583584,-0.390265204,1.018329711
0.584584585,-0.394330507,1.018361137
0.585585586,-0.398379876,1.018392563
0.586586587,-0.402413145,1.018423989
0.587587588,-0.406430151,1.018455415
0.588588589,-0.410430728,1.018486841
0.58958959,-0.414414715,1.018518267
0.590590591,-0.418381948,1.018549693
0.591591592,-0.422332265,1.018581118
0.592592593,-0.426265505,1.018612544
0.593593594,-0.430181507,1.01864397
0.594594595,-0.434080112,1.018675395
0.595595596,-0.437961159,1.01870682
0.596596597,-0.441824491,1.018738246
0.597597598,-0.445669949,1.018769671
0.598598599,-0.449497376,1.018801096
0.5995996,-0.453306617,1.018832521
0.600600601,-0.457097514,1.018863946
0.601601602,-0.460869914,1.018895371
0.602602603,-0.464623662,1.018926796
0.603603604,-0.468358604,1.018958221
0.604604605,-0.472074588,1.018989646
0.605605606,-0.475771461,1.01902107
0.606606607,-0.479449073,1.019052495
0.607607608,-0.483107273,1.019083919
0.608608609,-0.486745911,1.019115344
0.60960961,-0.490364838,1.019146768
0.610610611,-0.493963906,1.019178192
0.611611612,-0.497542968,1.019209617
0.612612613,-0.501101877,1.019241041
0.613613614,-0.504640488,1.019272465
0.614614615,-0.508158655,1.019303889
0.615615616,-0.511656235,1.019335313
0.616616617,-0.515133083,1.019366736
0.617617618,-0.518589059,1.01939816
0.618618619,-0.522024019,1.019429584
0.61961962,-0.525437824,1.019461007
0.620620621,-0.528830333,1.019492431
0.621621622,-0.532201408,1.019523854
0.622622623,-0.535550909,1.019555278
0.623623624,-0.5388787,1.019586701
0.624624625,-0.542184644,1.019618124
0.625625626,-0.545468605,1.019649547
0.626626627,-0.54873045,1.01968097
0.627627628,-0.551970043,1.019712393
0.628628629,-0.555187252,1.019743816
0.62962963,-0.558381945,1.019775239
0.630630631,-0.561553991,1.019806662
0.631631632,-0.564703259,1.019838084
0.632632633,-0.567829621,1.019869507
0.633633634,-0.570932947,1.019900929
0.634634635,-0.574013111,1.019932352
0.635635636,-0.577069985,1.019963774
0.636636637,-0.580103444,1.019995196
0.637637638,-0.583113363,1.020026619
0.638638639,-0.58609962,1.020058041
0.63963964,-0.58906209,1.020089463
0.640640641,-0.592000652,1.020120885
0.641641642,-0.594915185,1.020152307
0.642642643,-0.597805569,1.020183728
0.643643644,-0.600671686,1.02021515
0.644644645,-0.603513417,1.020246572
0.645645646,-0.606330646,1.020277993
0.646646647,-0.609123256,1.020309415
0.647647648,-0.611891132,1.020340836
0.648648649,-0.614634161,1.020372257
0.64964965,-0.617352229,1.020403679
0.650650651,-0.620045224,1.0204351
0.651651652,-0.622713036,1.020466521
0.652652653,-0.625355555,1.020497942
0.653653654,-0.627972671,1.020529363
0.654654655,-0.630564277,1.020560783
0.655655656,-0.633130265,1.020592204
0.656656657,-0.635670531,1.020623625
0.657657658,-0.638184968,1.020655045
0.658658659,-0.640673474,1.020686466
0.65965966,-0.643135945,1.020717886
0.660660661,-0.64557228,1.020749307
0.661661662,-0.647982378,1.020780727
0.662662663,-0.650366141,1.020812147
0.663663664,-0.652723468,1.020843567
0.664664665,-0.655054263,1.020874987
0.665665666,-0.657358429,1.020906407
0.666666667,-0.659635872,1.020937827
0.667667668,-0.661886497,1.020969247
0.668668669,-0.66411021,1.021000666
0.66966967,-0.66630692,1.021032086
0.670670671,-0.668476536,1.021063505
0.671671672,-0.670618968,1.021094925
0.672672673,-0.672734128,1.021126344
0.673673674,-0.674821927,1.021157763
0.674674675,-0.676882279,1.021189183
0.675675676,-0.678915099,1.021220602
0.676676677,-0.680920302,1.021252021
0.677677678,-0.682897806,1.02128344
0.678678679,-0.684847527,1.021314858
0.67967968,-0.686769386,1.021346277
0.680680681,-0.688663303,1.021377696
0.681681682,-0.690529198,1.021409114
0.682682683,-0.692366994,1.021440533
0.683683684,-0.694176615,1.021471951
0.684684685,-0.695957986,1.02150337
0.685685686,-0.697711032,1.021534788
0.686686687,-0.699435681,1.021566206
0.687687688,-0.701131861,1.021597624
0.688688689,-0.7027995,1.021629042
0.68968969,-0.70443853,1.02166046
0.690690691,-0.706048883,1.021691878
0.691691692,-0.70763049,1.021723295
0.692692693,-0.709183287,1.021754713
0.693693694,-0.710707208,1.021786131
0.694694695,-0.712202189,1.021817548
0.695695696,-0.713668168,1.021848965
0.696696697,-0.715105085,1.021880383
0.697697698,-0.716512878,1.0219118
0.698698699,-0.717891489,1.021943217
0.6996997,-0.719240859,1.021974634
0.700700701,-0.720560933,1.022006051
0.701701702,-0.721851656,1.022037468
0.702702703,-0.723112972,1.022068885
0.703703704,-0.724344829,1.022100301
0.704704705,-0.725547175,1.022131718
0.705705706,-0.72671996,1.022163134
0.706706707,-0.727863134,1.022194551
0.707707708,-0.728976649,1.022225967
0.708708709,-0.730060458,1.022257383
0.70970971,-0.731114515,1.0222888
0.710710711,-0.732138776,1.022320216
0.711711712,-0.733133198,1.022351632
0.712712713,-0.734097738,1.022383048
0.713713714,-0.735032355,1.022414463
0.714714715,-0.73593701,1.022445879
0.715715716,-0.736811664,1.022477295
0.716716717,-0.737656281,1.02250871
0.717717718,-0.738470823,1.022540126
0.718718719,-0.739255257,1.022571541
0.71971972,-0.740009548,1.022602956
0.720720721,-0.740733665,1.022634371
0.721721722,-0.741427576,1.022665787
0.722722723,-0.742091251,1.022697202
0.723723724,-0.742724663,1.022728616
0.724724725,-0.743327782,1.022760031
0.725725726,-0.743900584,1.022791446
0.726726727,-0.744443044,1.022822861
0.727727728,-0.744955137,1.022854275
0.728728729,-0.745436841,1.02288569
0.72972973,-0.745888135,1.022917104
0.730730731,-0.746309,1.022948518
0.731731732,-0.746699415,1.022979933
0.732732733,-0.747059365,1.023011347
0.733733734,-0.747388832,1.023042761
0.734734735,-0.747687802,1.023074175
0.735735736,-0.747956261,1.023105588
0.736736737,-0.748194197,1.023137002
0.737737738,-0.748401597,1.023168416
0.738738739,-0.748578454,1.023199829
0.73973974,-0.748724756,1.023231243
0.740740741,-0.748840498,1.023262656
0.741741742,-0.748925672,1.023294069
0.742742743,-0.748980274,1.023325483
0.743743744,-0.749004301,1.023356896
0.744744745,-0.748997749,1.023388309
0.745745746,-0.748960617,1.023419722
0.746746747,-0.748892906,1.023451134
0.747747748,-0.748794617,1.023482547
0.748748749,-0.748665751,1.02351396
0.74974975,-0.748506314,1.023545372
0.750750751,-0.74831631,1.023576785
0.751751752,-0.748095745,1.023608197
0.752752753,-0.747844627,1.023639609
0.753753754,-0.747562964,1.023671021
0.754754755,-0.747250767,1.023702434
0.755755756,-0.746908048,1.023733845
0.756756757,-0.746534817,1.023765257
0.757757758,-0.74613109,1.023796669
0.758758759,-0.745696882,1.023828081
0.75975976,-0.745232208,1.023859492
0.760760761,-0.744737086,1.023890904
0.761761762,-0.744211536,1.023922315
0.762762763,-0.743655576,1.023953727
0.763763764,-0.743069229,1.023985138
0.764764765,-0.742452516,1.024016549
0.765765766,-0.741805462,1.02404796
0.766766767,-0.741128092,1.024079371
0.767767768,-0.740420432,1.024110782
0.768768769,-0.73968251,1.024142193
0.76976977,-0.738914354,1.024173603
0.770770771,-0.738115994,1.024205014
0.771771772,-0.737287461,1.024236424
0.772772773,-0.736428789,1.024267835
0.773773774,-0.73554001,1.024299245
0.774774775,-0.734621161,1.024330655
0.775775776,-0.733672276,1.024362065
0.776776777,-0.732693393,1.024393475
0.777777778,-0.731684552,1.024424885
0.778778779,-0.730645791,1.024456295
0.77977978,-0.729577153,1.024487704
0.780780781,-0.728478679,1.024519114
0.781781782,-0.727350413,1.024550523
0.782782783,-0.7261924,1.024581933
0.783783784,-0.725004686,1.024613342
0.784784785,-0.723787318,1.024644751
0.785785786,-0.722540345,1.02467616
0.786786787,-0.721263816,1.024707569
0.787787788,-0.719957782,1.024738978
0.788788789,-0.718622296,1.024770387
0.78978979,-0.717257411,1.024801796
0.790790791,-0.715863181,1.024833204
0.791791792,-0.714439662,1.024864613
0.792792793,-0.712986911,1.024896021
0.793793794,-0.711504987,1.02492743
0.794794795,-0.709993948,1.024958838
0.795795796,-0.708453856,1.024990246
0.796796797,-0.706884771,1.025021654
0.797797798,-0.705286758,1.025053062
0.798798799,-0.70365988,1.02508447
0.7997998,-0.702004203,1.025115878
0.800800801,-0.700319793,1.025147285
0.801801802,-0.698606718,1.025178693
0.802802803,-0.696865046,1.0252101
0.803803804,-0.695094849,1.025241507
0.804804805,-0.693296197,1.025272915
0.805805806,-0.691469162,1.025304322
0.806806807,-0.689613819,1.025335729
0.807807808,-0.687730242,1.025367136
0.808808809,-0.685818507,1.025398543
0.80980981,-0.683878692,1.025429949
0.810810811,-0.681910874,1.025461356
0.811811812,-0.679915133,1.025492762
0.812812813,-0.67789155,1.025524169
0.813813814,-0.675840206,1.025555575
0.814814815,-0.673761184,1.025586981
0.815815816,-0.671654569,1.025618388
0.816816817,-0.669520445,1.025649794
0.817817818,-0.667358899,1.025681199
0.818818819,-0.665170018,1.025712605
0.81981982,-0.662953892,1.025744011
0.820820821,-0.660710609,1.025775417
0.821821822,-0.65844026,1.025806822
0.822822823,-0.656142938,1.025838228
0.823823824,-0.653818736,1.025869633
0.824824825,-0.651467747,1.025901038
0.825825826,-0.649090068,1.025932443
0.826826827,-0.646685794,1.025963848
0.827827828,-0.644255023,1.025995253
0.828828829,-0.641797853,1.026026658
0.82982983,-0.639314385,1.026058063
0.830830831,-0.63680472,1.026089467
0.831831832,-0.634268958,1.026120872
0.832832833,-0.631707203,1.026152276
0.833833834,-0.629119559,1.02618368
0.834834835,-0.626506132,1.026215084
0.835835836,-0.623867027,1.026246488
0.836836837,-0.621202352,1.026277892
0.837837838,-0.618512214,1.026309296
0.838838839,-0.615796724,1.0263407
0.83983984,-0.613055992,1.026372104
0.840840841,-0.610290129,1.026403507
0.841841842,-0.607499248,1.026434911
0.842842843,-0.604683463,1.026466314
0.843843844,-0.601842887,1.026497717
0.844844845,-0.598977637,1.02652912
0.845845846,-0.596087829,1.026560523
0.846846847,-0.593173581,1.026591926
0.847847848,-0.590235012,1.026623329
0.848848849,-0.587272241,1.026654732
0.84984985,-0.58428539,1.026686134
0.850850851,-0.581274579,1.026717537
0.851851852,-0.578239931,1.026748939
0.852852853,-0.575181571,1.026780342
0.853853854,-0.572099623,1.026811744
0.854854855,-0.568994212,1.026843146
0.855855856,-0.565865465,1.026874548
0.856856857,-0.56271351,1.02690595
0.857857858,-0.559538476,1.026937352
0.858858859,-0.556340492,1.026968753
0.85985986,-0.553119688,1.027000155
0.860860861,-0.549876196,1.027031556
0.861861862,-0.546610149,1.027062957
0.862862863,-0.543321679,1.027094359
0.863863864,-0.540010921,1.02712576
0.864864865,-0.536678011,1.027157161
0.865865866,-0.533323084,1.027188562
0.866866867,-0.529946277,1.027219963
0.867867868,-0.526547729,1.027251363
0.868868869,-0.523127578,1.027282764
0.86986987,-0.519685963,1.027314164
0.870870871,-0.516223027,1.027345565
0.871871872,-0.51273891,1.027376965
0.872872873,-0.509233755,1.027408365
0.873873874,-0.505707705,1.027439765
0.874874875,-0.502160904,1.027471165
0.875875876,-0.498593497,1.027502565
0.876876877,-0.495005631,1.027533965
0.877877878,-0.491397451,1.027565364
0.878878879,-0.487769107,1.027596764
0.87987988,-0.484120746,1.027628163
0.880880881,-0.480452517,1.027659562
0.881881882,-0.476764571,1.027690961
0.882882883,-0.473057059,1.02772236
0.883883884,-0.469330132,1.027753759
0.884884885,-0.465583943,1.027785158
0.885885886,-0.461818646,1.027816557
0.886886887,-0.458034394,1.027847956
0.887887888,-0.454231344,1.027879354
0.888888889,-0.450409649,1.027910752
0.88988989,-0.446569469,1.027942151
0.890890891,-0.442710958,1.027973549
0.891891892,-0.438834276,1.028004947
0.892892893,-0.434939582,1.028036345
0.893893894,-0.431027036,1.028067743
0.894894895,-0.427096796,1.028099141
0.895895896,-0.423149026,1.028130538
0.896896897,-0.419183886,1.028161936
0.897897898,-0.41520154,1.028193333
0.898898899,-0.41120215,1.02822473
0.8998999,-0.407185881,1.028256128
0.900900901,-0.403152898,1.028287525
0.901901902,-0.399103365,1.028318922
0.902902903,-0.39503745,1.028350318
0.903903904,-0.390955318,1.028381715
0.904904905,-0.386857138,1.028413112
0.905905906,-0.382743078,1.028444508
0.906906907,-0.378613307,1.028475905
0.907907908,-0.374467994,1.028507301
0.908908909,-0.370307309,1.028538697
0.90990991,-0.366131423,1.028570093
0.910910911,-0.361940509,1.028601489
0.911911912,-0.357734737,1.028632885
0.912912913,-0.353514281,1.028664281
0.913913914,-0.349279314,1.028695676
0.914914915,-0.34503001,1.028727072
0.915915916,-0.340766544,1.028758467
0.916916917,-0.336489091,1.028789862
0.917917918,-0.332197826,1.028821257
0.918918919,-0.327892927,1.028852652
0.91991992,-0.32357457,1.028884047
0.920920921,-0.319242932,1.028915442
0.921921922,-0.314898192,1.028946837
0.922922923,-0.310540528,1.028978231
0.923923924,-0.30617012,1.029009626
0.924924925,-0.301787147,1.02904102
0.925925926,-0.297391789,1.029072414
0.926926927,-0.292984228,1.029103809
0.927927928,-0.288564645,1.029135203
0.928928929,-0.284133221,1.029166596
0.92992993,-0.279690139,1.02919799
0.930930931,-0.275235582,1.029229384
0.931931932,-0.270769733,1.029260777
0.932932933,-0.266292776,1.029292171
0.933933934,-0.261804895,1.029323564
0.934934935,-0.257306274,1.029354957
0.935935936,-0.2527971,1.02938635
0.936936937,-0.248277557,1.029417743
0.937937938,-0.243747833,1.029449136
0.938938939,-0.239208113,1.029480529
0.93993994,-0.234658584,1.029511922
0.940940941,-0.230099434,1.029543314
0.941941942,-0.22553085,1.029574706
0.942942943,-0.220953021,1.029606099
0.943943944,-0.216366136,1.029637491
0.944944945,-0.211770383,1.029668883
0.945945946,-0.207165952,1.029700275
0.946946947,-0.202553032,1.029731666
0.947947948,-0.197931814,1.029763058
0.948948949,-0.193302487,1.02979445
0.94994995,-0.188665244,1.029825841
0.950950951,-0.184020275,1.029857232
0.951951952,-0.179367772,1.029888624
0.952952953,-0.174707926,1.029920015
0.953953954,-0.170040929,1.029951406
0.954954955,-0.165366975,1.029982797
0.955955956,-0.160686256,1.030014187
0.956956957,-0.155998964,1.030045578
0.957957958,-0.151305294,1.030076968
0.958958959,-0.146605438,1.030108359
0.95995996,-0.141899591,1.030139749
0.960960961,-0.137187948,1.030171139
0.961961962,-0.132470701,1.030202529
0.962962963,-0.127748047,1.030233919
0.963963964,-0.123020179,1.030265309
0.964964965,-0.118287294,1.030296698
0.965965966,-0.113549586,1.030328088
0.966966967,-0.108807251,1.030359477
0.967967968,-0.104060485,1.030390867
0.968968969,-0.099309484,1.030422256
0.96996997,-0.094554444,1.030453645
0.970970971,-0.089795561,1.030485034
0.971971972,-0.085033032,1.030516423
0.972972973,-0.080267053,1.030547811
0.973973974,-0.075497822,1.0305792
0.974974975,-0.070725535,1.030610588
0.975975976,-0.06595039,1.030641977
0.976976977,-0.061172584,1.030673365
0.977977978,-0.056392314,1.030704753
0.978978979,-0.051609777,1.030736141
0.97997998,-0.046825172,1.030767529
0.980980981,-0.042038697,1.030798916
0.981981982,-0.037250548,1.030830304
0.982982983,-0.032460924,1.030861691
0.983983984,-0.027670023,1.030893079
0.984984985,-0.022878043,1.030924466
0.985985986,-0.018085182,1.030955853
0.986986987,-0.013291639,1.03098724
0.987987988,-0.008497611,1.031018627
0.988988989,-0.003703296,1.031050014
0.98998999,0.001091106,1.0310814
0.990990991,0.005885399,1.031112787
0.991991992,0.010679382,1.031144173
0.992992993,0.015472859,1.031175559
0.993993994,0.020265631,1.031206946
0.994994995,0.025057499,1.031238332
0.995995996,0.029848265,1.031269717
0.996996997,0.034637732,1.031301103
0.997997998,0.0394257,1.031332489
0.998998999,0.044211972,1.031363874
1,0.048996349,1.03139526
